Response function created for file:exgam_pp at 07-Dec-18 12:18:58
Calibration (a0,a1)=    20.0   50.000  FWHM=    3.0

 Egam(keV) FWHM(keV) EffTot  Photo  Compton Single  Double   Annih
    20.0      10.0   1.186  1.0000  0.0000  0.0000  0.0000  0.0000
   220.0      36.5   1.166  0.4022  0.5978  0.0000  0.0000  0.0000
   420.0      35.8   1.144  0.3541  0.6459  0.0000  0.0000  0.0000
   620.0      36.2   1.106  0.3263  0.6737  0.0000  0.0000  0.0000
   820.0      37.0   1.071  0.3092  0.6908  0.0000  0.0000  0.0000
  1020.0      38.0   1.039  0.2952  0.7047  0.0000  0.0000  0.0000
  1220.0      39.3   1.012  0.2852  0.7139  0.0006  0.0000  0.0003
  1420.0      40.7   0.991  0.2758  0.7208  0.0020  0.0004  0.0010
  1620.0      42.3   0.972  0.2666  0.7258  0.0047  0.0008  0.0022
  1820.0      44.0   0.958  0.2573  0.7295  0.0081  0.0013  0.0038
  2020.0      45.9   0.947  0.2475  0.7330  0.0119  0.0019  0.0057
  2220.0      47.9   0.937  0.2382  0.7353  0.0158  0.0026  0.0080
  2420.0      50.0   0.933  0.2286  0.7381  0.0203  0.0030  0.0100
  2620.0      52.1   0.929  0.2210  0.7382  0.0244  0.0038  0.0126
  2820.0      54.4   0.924  0.2125  0.7405  0.0282  0.0044  0.0144
  3020.0      56.7   0.921  0.2042  0.7424  0.0320  0.0049  0.0164
  3220.0      59.1   0.920  0.1972  0.7432  0.0355  0.0055  0.0186
  3420.0      61.5   0.922  0.1901  0.7448  0.0386  0.0059  0.0206
  3620.0      64.0   0.923  0.1845  0.7462  0.0412  0.0061  0.0220
  3820.0      66.5   0.922  0.1777  0.7467  0.0447  0.0064  0.0245
  4020.0      69.0   0.924  0.1721  0.7472  0.0475  0.0072  0.0260
  4220.0      71.6   0.927  0.1656  0.7500  0.0492  0.0075  0.0278
  4420.0      74.2   0.930  0.1603  0.7502  0.0525  0.0075  0.0295
  4620.0      76.8   0.933  0.1556  0.7529  0.0537  0.0073  0.0304
  4820.0      79.5   0.937  0.1505  0.7551  0.0551  0.0074  0.0318
  5020.0      82.1   0.941  0.1460  0.7581  0.0563  0.0078  0.0319
  5220.0      84.8   0.946  0.1417  0.7590  0.0576  0.0076  0.0341
  5420.0      87.6   0.952  0.1354  0.7621  0.0588  0.0082  0.0355
  5620.0      90.3   0.951  0.1330  0.7628  0.0591  0.0083  0.0368
  5820.0      93.0   0.955  0.1280  0.7671  0.0597  0.0082  0.0370
  6020.0      95.8   0.959  0.1257  0.7685  0.0604  0.0085  0.0369
  6220.0      98.6   0.967  0.1218  0.7716  0.0596  0.0081  0.0389
  6420.0     101.3   0.969  0.1184  0.7732  0.0602  0.0087  0.0395
  6620.0     104.1   0.976  0.1150  0.7758  0.0607  0.0085  0.0400
  6820.0     106.9   0.978  0.1113  0.7799  0.0603  0.0083  0.0402
  7020.0     109.7   0.983  0.1093  0.7814  0.0602  0.0078  0.0413
  7220.0     112.5   0.986  0.1062  0.7830  0.0604  0.0081  0.0422
  7420.0     115.4   0.996  0.1035  0.7889  0.0592  0.0074  0.0410
  7620.0     118.2   1.000  0.1004  0.7899  0.0596  0.0077  0.0425
  7820.0     121.0   1.003  0.0979  0.7929  0.0585  0.0076  0.0431
  8020.0     123.9   1.010  0.0954  0.7958  0.0579  0.0073  0.0436
  8220.0     126.7   1.015  0.0935  0.7978  0.0572  0.0078  0.0437
  8420.0     129.6   1.020  0.0905  0.8017  0.0562  0.0075  0.0441
  8620.0     132.4   1.022  0.0882  0.8047  0.0557  0.0073  0.0441
  8820.0     135.3   1.030  0.0849  0.8085  0.0549  0.0075  0.0442
  9020.0     138.2   1.036  0.0834  0.8103  0.0544  0.0072  0.0449
  9220.0     141.0   1.042  0.0805  0.8140  0.0533  0.0070  0.0451
  9420.0     143.9   1.047  0.0794  0.8170  0.0520  0.0070  0.0446
  9620.0     146.8   1.052  0.0777  0.8186  0.0520  0.0066  0.0450
  9820.0     149.7   1.056  0.0751  0.8221  0.0505  0.0067  0.0456
 Details on efficiency up to 1000 keV:
    Egam  EffTot  EffExp  EffTot*EffExp
=======================================
    20.0   1.186   0.000   0.000
    70.0   1.181   0.000   0.000
   120.0   1.176   0.952   1.120
   170.0   1.171   1.000   1.171
   220.0   1.166   1.000   1.166
   270.0   1.161   1.000   1.161
   320.0   1.156   1.000   1.156
   370.0   1.151   1.000   1.151
   420.0   1.144   1.000   1.144
   470.0   1.134   1.000   1.134
   520.0   1.125   1.000   1.125
   570.0   1.115   1.000   1.115
   620.0   1.106   1.000   1.106
   670.0   1.097   1.000   1.097
   720.0   1.088   1.000   1.088
   770.0   1.079   1.000   1.079
   820.0   1.071   1.000   1.071
   870.0   1.063   1.000   1.063
   920.0   1.055   1.000   1.055
   970.0   1.047   1.000   1.047
  1020.0   1.039   1.000   1.039
 Details on efficiency up to 1000 keV:
    Egam  EffTot  EffExp  EffTot*EffExp
=======================================
    20.0   1.186   0.000   0.000
    70.0   1.181   0.000   0.000
   120.0   1.176   0.952   1.120
   170.0   1.171   1.000   1.171
   220.0   1.166   1.000   1.166
   270.0   1.161   1.000   1.161
   320.0   1.156   1.000   1.156
   370.0   1.151   1.000   1.151
   420.0   1.144   1.000   1.144
   470.0   1.134   1.000   1.134
   520.0   1.125   1.000   1.125
   570.0   1.115   1.000   1.115
   620.0   1.106   1.000   1.106
   670.0   1.097   1.000   1.097
   720.0   1.088   1.000   1.088
   770.0   1.079   1.000   1.079
   820.0   1.071   1.000   1.071
   870.0   1.063   1.000   1.063
   920.0   1.055   1.000   1.055
   970.0   1.047   1.000   1.047
  1020.0   1.039   1.000   1.039
